ALT	PRESS	TEMP	RH	SPEED	DIR	POTT	VIRPOT	Ri
1313	867.775	15.77	26.085	1.6	171.0946912	300.8798911	301.4276702	
1314	867.6746429	15.66678571	26.55392857	1.564285714	176.5129304	300.7823546	301.3365647	-2.595998001
1315	867.59375	15.62	26.6575	1.4875	176.5994237	300.7416503	301.2965032	-0.234407441
1316	867.43	16.63	25.24	3.1	163.1946912	301.8098148	302.3686074	0.013899992
1318	867.27	17.03	25.2	3.4	164.1946912	302.2423656	302.8141032	0.324789326
1320	867.09	17.735	25.105	4.1	167.2190786	302.9946591	303.5891924	0.10350111
1321	866.97	18.32	25.06	4.9	163.7609821	303.6160298	304.2308853	0.032660477
1323	866.755	19.225	25.035	5.3	155.2446912	304.5803466	305.2290533	0.40423671
1324	866.67	19.68	25.02	5.3	151.0946912	305.0628976	305.7291654	
1326	866.46	20.025	25.015	5.65	150.5460186	305.4434792	306.123671	0.207807677
1327	866.36	20.28	25.01	5.8	150.7946912	305.7192414	306.409801	0.409538565
1328	866.25	20.535	25	6.25	149.6386911	305.9960333	306.6969745	0.045634545
1329	866.12	20.76	24.99	6	145.8946912	306.24361	306.9538307	0.132148667
1331	865.99	20.8	24.98	6.1	142.6946912	306.2984377	307.0102006	0.365766949
1332	865.84	20.935	24.98	6.2	139.7946912	306.4542914	307.1719369	0.519627153
1333	865.75	20.93	24.97	6.2	137.8946912	306.4581917	307.1754351	
1334	865.67	21.215	24.97	6.35	136.1372102	306.7632967	307.4928371	0.451677381
1335	865.55	21.5	24.97	6.6	134.0946912	307.0724736	307.8145481	0.164614706
1336	865.45	21.72	24.96	6.8	132.8946912	307.3119036	308.0634949	0.199038071
1337	865.32	21.75	24.96	6.9	131.2946912	307.3563743	308.1094458	0.147858758
1338	865.23	22.08	24.96	7	128.4946912	307.7094668	308.4774391	1.172671645
1339	865.18	21.94	24.96	6.9	129.7946912	307.5686324	308.3303524	-0.467953451
1340	865.065	22.365	24.96	7.1	127.0946912	308.0233157	308.8044763	0.377153499
1341	864.94	22.53	24.96	7.2	126.5946912	308.2080365	308.996962	0.612551333
1344	864.7033333	22.74333333	24.97	7.2	126.1280239	308.4545493	309.2540305	
1345	864.58	22.87	24.97	7.2	124.8946912	308.5991826	309.40478	
1346	864.49	22.87	24.97	7.2	124.1946912	308.6083707	309.4140783	
1348	864.2566667	22.89666667	24.98	7.1	123.5946897	308.6600003	309.4675789	0.341993165
1350	864.11	22.91	24.98	7.1	125.1946912	308.6888849	309.4972755	
1351	864.005	23	24.98	7.05	125.0961096	308.7934558	309.6062541	1.384866994
1352	863.86	22.91	24.99	7	123.2946912	308.7144318	309.5234535	-1.046858368
1354	863.7	22.99	24.99	7.05	120.8989467	308.8142107	309.6272348	2.642899134
1355	863.61	22.95	24.99	7.1	119.2946912	308.7817014	309.5929318	-0.430603698
1356	863.52	22.99	24.99	7.1	119.4946912	308.8326197	309.6458665	
1357	863.34	23.02	24.99	7.1	120.1946912	308.8823214	309.697223	
1358	863.27	22.97	24.995	6.95	122.2385756	308.837337	309.6501022	-0.066200401
1359	863.18	23.02	25	7	124.3946912	308.8986952	309.7141214	0.812531892
1360	863.08	23.02	25	7.05	125.8989467	308.9089309	309.7244813	0.135545874
1361	862.93	23.02	25.01	7	127.2946912	308.924287	309.74035	0.203352644
1362	862.91	22.98	25.01	7.1	126.9946912	308.8846119	309.698788	-0.131366455
1363	862.73	23.02	25.01	7.1	126.2946912	308.9447674	309.7610789	
1365	862.595	23.04	25.02	7.1	124.6946912	308.9794586	309.7972227	
1366	862.43	22.99	25.03	7.1	121.6946912	308.9442022	309.7601035	
1367	862.39	23.06	25.03	7.1	119.1946912	309.021328	309.8406344	
1368	862.26	23.025	25.04	7.1	117.2446912	308.998137	309.8162528	
1369	862.19	23.1	25.05	7.1	115.6946912	309.0835604	309.9056966	
1370	862.1	23.12	25.075	7.1	115.2946912	309.1136557	309.9376904	
1371	861.99	23.14	25.09	7.1	116.9946912	309.1458045	309.9714375	
1372	861.85	23.18	25.11	7	118.6946912	309.2019035	310.0303101	0.185621804
1374	861.685	23.24	25.13	7.05	120.2954004	309.2814453	310.1136398	2.105092914
1375	861.565	23.315	25.17	7.05	119.2982374	309.3720306	310.2093713	
1377	861.37	23.37	25.2	7	117.5946912	309.4494572	310.2907494	2.048214629
1378	861.295	23.45	25.235	7	114.8946912	309.540654	310.3871644	
1380	861.095	23.63	25.295	7	110.2446912	309.7490811	310.6068442	
1382	860.89	23.79	25.37	7.05	106.7400811	309.9371771	310.8058351	4.968787435
1383	860.78	23.93	25.41	7.1	106.4946912	310.094637	310.971952	2.078769338
1384	860.69	24	25.44	7.1	106.5946912	310.1769792	311.0590462	
1385	860.57	24.04	25.47	7	106.6946912	310.2311038	311.1164364	0.178570986
1386	860.51	24.13	25.51	7.1	107.5446912	310.3312414	311.2227121	0.330279235
1388	860.345	24.21	25.57	7.1	107.9946912	310.4317788	311.3297493	
1389	860.175	24.39	25.64	7.1	108.0946912	310.6372473	311.5474037	
1391	860.02	24.53	25.72	7	108.2446912	310.7994284	311.7201131	1.068392261
1392	859.895	24.68	25.765	6.9	108.9946912	310.9689671	311.8995224	0.558149683
1394	859.695	24.8	25.815	6.8	109.6946912	311.1149573	312.054132	0.960861565
1396	859.51	24.97	25.865	6.85	109.7450561	311.3116301	312.2622307	5.174801993
1398	859.36	24.99	25.89	6.8	109.3946912	311.3480561	312.3009	0.958365081
1399	859.25	25.03	25.9	6.8	108.9446912	311.4012289	312.3568178	
1401	859.05	25.12	25.92	6.7	108.2946912	311.5159584	312.4775877	0.754303668
1403	858.855	25.14	25.925	6.7	108.2446912	311.5570746	312.520294	
1404	858.77	25.16	25.94	6.8	108.0946912	311.5867841	312.5518054	0.097651285
1405	858.61	25.12	25.94	6.9	108.8946912	311.5616066	312.5246276	-0.082766138
1406	858.535	25.14	25.94	6.9	109.0033872	311.5902823	312.5545322	
1407	858.47	25.2	25.94	6.8	109.9946912	311.6597063	312.6274144	0.228157247
1408	858.32	25.18	25.935	6.8	111.5446912	311.6543891	312.6210116	
1409	858.21	25.16	25.93	6.8	113.7946912	311.6449192	312.6103978	
1410	858.12	25.16	25.94	6.8	114.5946912	311.6542669	312.6202513	
1411	858.02	25.14	25.94	6.8	116.0446912	311.6437593	312.6087718	
1412	857.94	25.16	25.94	6.8	117.5946912	311.672966	312.6392175	
1414	857.74	25.18	25.935	6.8	118.6446912	311.714646	312.6821298	
1416	857.53	25.16	25.94	6.6	118.6946912	311.7155774	312.6824376	0.001530647
1417	857.46	25.14	25.935	6.6	118.1946912	311.7019558	312.6676126	
1418	857.37	25.115	25.925	6.75	118.3946912	311.6851881	312.6492068	-0.024498447
1420	857.155	25.115	25.925	6.8	118.9946912	311.7075465	312.6718838	0.588002383
1422	856.95	25.07	25.93	6.8	119.8946912	311.681839	312.6441501	
1423	856.86	25.12	25.925	6.8	119.7446912	311.7434602	312.7085148	
1424	856.77	25.12	25.93	6.8	120.4946912	311.7528256	312.7181999	
1425	856.66	25.12	25.92	6.7	120.8446912	311.7642739	312.7294392	0.037634226
1427	856.46	25.12	25.93	6.7	121.0946912	311.7850938	312.7509285	
1428	856.42	25.03	25.92	6.7	120.9946912	311.6951792	312.655671	
1429	856.2833333	25.05666667	25.92666667	6.6	121.8860943	311.7372833	312.6997126	0.138438571
1430	856.15	25.12	25.93	6.6	122.0946912	311.817377	312.7836725	
1432	855.97	25.115	25.92	6.5	123.5446912	311.8309016	312.7968118	0.088920624
1434	855.805	25.12	25.92	6.5	123.7446912	311.8533225	312.8197584	
1436	855.6	25.115	25.91	6.55	123.7939278	311.8694627	312.8355504	0.424469341
1437	855.52	25.07	25.9	6.5	124.2946912	311.8307492	312.7940641	-0.509138238
1438	855.43	25.16	25.9	6.4	123.8946912	311.9342423	312.9027353	0.340168648
1439	855.32	25.12	25.89	6.4	122.0446912	311.9038869	312.8699255	
1441	855.1	25.09	25.88333333	6.166666667	119.7946912	311.8954624	312.8598992	-0.010174304
1443	854.89	25.03	25.88	6.4	117.2946912	311.8546202	312.8158914	-0.049335286
1444	854.85	25.07	25.87	6.3	118.3946912	311.9006285	312.8638212	0.151268987
1445	854.71	25.01	25.865	6.6	116.6977215	311.8524836	312.8123491	-0.017591733
1446	854.59	24.99	25.86	6.8	118.3946912	311.8440876	312.8028311	-0.006903127
1449	854.3433333	25.00333333	25.86	6.666666667	119.4836837	311.8837825	312.8436335	0.220287405
1451	854.1533333	25.01666667	25.85333333	6.433333333	119.7615306	311.9175707	312.8781987	0.040816188
1453	853.93	24.97	25.86	6.4	121.5446912	311.8920776	312.8506835	-1.509224443
1454	853.82	24.99	25.84	6.35	123.8915415	311.9244935	312.8836339	0.426430986
1456	853.655	25.03	25.81	6.25	124.2434912	311.9835873	312.944086	0.388636416
1457	853.56	25.03	25.79	6.2	123.2946912	311.9935177	312.9534129	0.130617087
1458	853.43	24.95	25.78	6.3	124.1946912	311.9233993	312.8786672	-0.230632388
1459	853.32	24.99	25.77	6.1	126.0799359	311.9767551	312.9340356	0.043868416
1461	853.165	24.97	25.75	5.8	127.6446912	311.9720352	312.9276911	-0.00344974
1462	853.03	24.95	25.75	6	129.0946912	311.9652244	312.9199701	-0.005600438
1463	852.93	24.99	25.75	6.1	129.1946912	312.0175465	312.9746603	0.172074087
1464	852.84	24.95	25.75	6	128.3946912	311.9851002	312.940126	-0.106722078
1465	852.76	24.99	25.75	6	126.7946912	312.0353349	312.9927	
1466	852.69	24.95	25.73	6.1	124.6946912	312.0007956	312.9553008	-0.113606223
1467	852.61	24.99	25.75	6.1	125.9946912	312.0510343	313.0086214	
1468	852.53	24.95	25.72	6	121.6946912	312.0175413	312.9719115	-0.110164829
1469	852.43	24.95	25.73	5.6	118.2946912	312.0280094	312.9828982	0.002151972
1470	852.3	24.93	25.715	5.4	113.3946912	312.0206849	312.9741006	-0.006023288
1471	852.21	24.95	25.71	5.4	111.8946912	312.0510448	313.0055158	
1472	852.12	24.87	25.72	5.6	110.0946912	311.976724	312.9272715	-0.061130103
1473	852.04	24.87	25.72	5.7	109.3946912	311.9851013	312.9357663	0.027561873
1474	851.9	24.91	25.71	6	113.1721988	312.0416405	312.994353	0.020665873
1475	851.76	24.91	25.72	6.2	115.9946912	312.0563082	313.0095976	0.012062768
1476	851.71	24.86	25.72	6.2	115.3946912	312.0091986	312.9597963	
1477	851.63	24.87	25.72	6.1	115.4946912	312.0280508	312.9793187	0.062025162
1478	851.515	24.78	25.715	6.1	117.1946912	311.9458685	312.8921582	
1479	851.39	24.82	25.7	6.1	119.8946912	312.00085	312.9489723	
1480	851.35	24.78	25.71	6	123.0946912	311.9631583	312.9095055	-0.124045596
1481	851.195	24.82	25.705	6.1	126.9446912	312.0212905	312.9698835	0.191291109
1482	851.13	24.78	25.71	6	131.7946912	311.9862181	312.9328875	-0.115425438
1483	851	24.74	25.71	5.8	133.6946912	311.957959	312.9026195	-0.023253779
1484	850.97	24.74	25.69	5.7	134.7946912	311.9611043	312.9050738	0.010352806
1485	850.86	24.78	25.68	5.4	137.3946912	312.0145293	312.9604893	0.019536119
1486	850.77	24.78	25.66	5.4	139.5946912	312.0239689	312.9693239	
1487	850.625	24.74	25.66	5.4	137.1946912	311.997286	312.9406569	
1489	850.46	24.78	25.65	5.3	133.8946912	312.056493	313.0019333	0.389707942
1490	850.37	24.78	25.64	5.6	132.8946912	312.0659384	313.0111418	0.003453911
1491	850.24	24.78	25.615	6	130.1388578	312.0795839	313.0240559	0.002806769
1492	850.13	24.78	25.56	5.8	127.4946912	312.0911322	313.0337369	0.009501559
1493	850.04	24.76	25.57	5.75	127.8555608	312.0796313	313.0216403	-0.151411348
1495	849.86	24.7	25.545	5.2	127.2475758	312.0356761	312.9737482	-0.009566814
1496	849.75	24.7	25.54	5.1	129.5946912	312.0472279	312.9852763	0.038027982
1498	849.57	24.72	25.54	5.15	133.083039	312.0870897	313.0264918	1.049711939
1499	849.43	24.66	25.55	5.1	135.5946912	312.0389331	312.9756326	-0.634200583
1500	849.365	24.66	25.54	5.15	135.8937203	312.0457626	312.9821898	0.089940675
1501	849.26	24.7	25.55	5.2	136.4946912	312.0987096	313.0378384	0.697194781
1502	849.17	24.66	25.54	5.3	139.3946912	312.0662547	313.0029652	-0.106853963
1503	849.11	24.61	25.54	5.3	141.8946912	312.0201667	312.9542433	
1504	848.98	24.66	25.55	5.4	143.4946912	312.0862273	313.0235808	0.217497301
1506	848.805	24.64	25.545	5.75	142.7346898	312.0836682	313.0200027	-0.00137567
1507	848.72	24.57	25.54	5.8	138.4946912	312.0192449	312.9517139	-0.848682999
1508	848.575	24.66	25.52	5.5	133.5265514	312.1288196	313.065661	0.040084731
1510	848.425	24.62	25.51	5.2	127.5946912	312.1026763	313.0371914	-0.019130144
1511	848.27	24.62	25.5	5.3	120.6946912	312.1189851	313.0533587	0.053702116
1512	848.22	24.57	25.51	5.4	124.3946912	312.0718366	313.0039334	-0.15527787
1513	848.12	24.62	25.49	5.4	125.0845247	312.1347718	313.0689966	
1514	847.99	24.6	25.475	5.55	130.9550529	312.127491	313.0602684	-0.010656053
1516	847.82	24.53	25.48	5.6	133.0946912	312.0720049	313.0014176	-1.462093791
1517	847.7	24.58	25.48	5.7	132.0946912	312.1370583	313.0693534	0.214238568
1518	847.625	24.535	25.485	5.6	131.4946912	312.0977785	313.0279259	-0.129378566
1519	847.51	24.57	25.49	5.7	132.0946912	312.1465855	313.0789791	0.160740067
1520	847.42	24.53	25.48	5.7	133.9946912	312.1141269	313.0441174	
1521	847.38	24.53	25.47	5.6	137.9946912	312.1183405	313.0480238	0.013878882
1523	847.1366667	24.51666667	25.46333333	5.3	137.5953204	312.1299975	313.0590677	0.008532914
1525	846.97	24.53	25.45	5.4	137.8946912	312.1615447	313.0910902	0.207821482
1526	846.865	24.47	25.445	5.4	140.1946912	312.1096923	313.0359656	
1527	846.76	24.49	25.45	5.4	140.0946912	312.1417352	313.0694215	
1528	846.645	24.41	25.445	5.25	139.248977	312.0699595	312.9933177	-0.105116374
1530	846.47	24.49	25.44	5.2	138.6946912	312.1723161	313.1000563	2.697521538
1531	846.34	24.41	25.44	5.2	138.5946912	312.1021195	313.0257343	
1533	846.19	24.45	25.43	5.133333333	138.597937	312.1598986	313.0855197	0.856643104
1534	846.07	24.43	25.42	5.15	138.9490602	312.1515807	313.0759334	-0.986639257
1535	845.99	24.45	25.42	5.2	139.2946912	312.1810027	313.1065479	0.387747736
1537	845.77	24.45	25.41	5.2	139.1613579	312.2042249	313.1297228	
1539	845.57	24.41	25.42	5.1	139.6946912	312.1833769	313.1073723	-0.137394547
1540	845.53	24.41	25.41	5.2	140.7946912	312.1876007	313.1112901	0.013917942
1541	845.4	24.33	25.41	5.2	142.7946912	312.1173933	313.0369738	
1542	845.35	24.37	25.42	5.2	141.6946912	312.1646419	313.0868026	
1543	845.1766667	24.35666667	25.41333333	5.2	144.2613547	312.16896	313.0904117	
1544	845.08	24.33	25.41	5.3	144.9946912	312.1511902	313.0712292	-0.05856977
1545	845	24.33	25.41	5.2	146.7946912	312.1596421	313.0797957	0.027857487
1547	844.82	24.41	25.41	5.2	148.8946912	312.2626152	313.1873269	
1548	844.73	24.37	25.4	5.3	150.1946912	312.2301522	313.152478	-0.106985007
1549	844.64	24.41	25.41	5.3	150.4946912	312.2816459	313.2066171	
1550	844.55	24.37	25.41	5.3	150.0946912	312.2491829	313.1721307	
1551	844.39	24.33	25.41	5.2	151.2946912	312.2241209	313.1451499	-0.082605226
1552	844.365	24.31	25.415	5.2	151.7446912	312.2057735	313.1259464	
1553	844.21	24.37	25.42	5.2	151.9946912	312.285144	313.2089447	
1554	844.15	24.29	25.41	5.2	149.7946912	312.2075202	313.1267485	
1555	844.02	24.37	25.41	5.2	147.1946912	312.3052481	313.2289591	
1556	843.93	24.33	25.41	5.3	144.4946912	312.272784	313.1944739	-0.107002871
1557	843.84	24.33	25.41	5.3	142.5946912	312.282309	313.2041284	
1558	843.765	24.37	25.41	5.15	142.9908076	312.3322391	313.2563176	0.073132996
1559	843.64	24.33	25.41	5.1	141.4946912	312.3034804	313.2255875	-0.379158464
1560	843.57	24.37	25.42	5.1	141.4946912	312.3528861	313.2776097	
1561	843.51	24.37	25.4	5.1	141.1946912	312.3592404	313.2833229	
1562	843.37	24.33	25.4	5.15	141.1471184	312.332072	313.2542048	-0.358191094
1564	843.21	24.33	25.4	5.2	141.9946912	312.3490208	313.2713839	0.44690964
1565	843.12	24.33	25.39	5.3	142.9946912	312.3585563	313.2806859	0.031429325
1566	843.02	24.33	25.395	5.4	144.4446912	312.3691528	313.291608	0.034926533
1567	842.89	24.35	25.395	5.3	148.9446912	312.4039325	313.327651	0.114627467
1568	842.75	24.33	25.4	5.3	152.2946912	312.3977715	313.3207975	
1569	842.73	24.25	25.41	5.3	153.8946912	312.3158795	313.2350019	
1570	842.615	24.29	25.405	5.4	158.4946912	312.3700778	313.2913301	0.178663793
1571	842.52	24.33	25.4	5.4	155.9946912	312.4221596	313.3455175	
1573	842.31	24.27	25.405	5.25	161.2394529	312.3814163	313.3020339	-0.119394285
1574	842.22	24.29	25.4	5.3	164.6946912	312.4119697	313.3336095	0.402874709
1576	842.015	24.33	25.4	5.25	166.948977	312.4757377	313.3998248	1.68145328
1577	841.96	24.27	25.385	5.25	168.1546923	312.4185497	313.338946	
1578	841.86	24.33	25.37	5.4	169.7946912	312.4921907	313.4154101	0.107877075
1580	841.635	24.37	25.36	5.45	168.098361	312.558103	313.4834377	1.737762569
1581	841.54	24.29	25.34	5.4	167.5946912	312.4841474	313.4045884	-0.975173224
1582	841.48	24.33	25.33	5.5	166.2946912	312.5325436	313.4548555	0.159515822
1583	841.33	24.37	25.33	5.5	167.2946912	312.590505	313.5151863	
1584	841.255	24.33	25.295	5.55	168.4946912	312.5564479	313.4778098	-0.449013579
1586	841.05	24.33	25.25	5.45	168.7974435	312.5782345	313.4982525	0.14361906
1587	840.95	24.31	25.22	5.3	169.1446912	312.5678486	313.4858467	-0.015215347
1589	840.79	24.33	25.21	5.3	168.8946912	312.6058759	313.5248105	
1590	840.665	24.31	25.225	5.3	167.4946912	312.5981514	313.5167413	
1591	840.56	24.25	25.23	5.3	167.0946912	312.5462629	313.4619775	
1592	840.52	24.29	25.22	5.3	168.0946912	312.5925545	313.5101007	
1593	840.43	24.29	25.21	5.3	168.1946912	312.602128	313.5194397	
1594	840.29	24.33	25.2	5.2	168.5446912	312.6590638	313.5783536	0.187662676
1595	840.16	24.29	25.18	5.2	168.3946912	312.6308563	313.5474641	
1596	840.08	24.27	25.16	5.25	168.796596	312.6183488	313.533276	-0.164933646
1597	840	24.27	25.15	5.35	170.7470276	312.6268634	313.5415416	0.028069852
1600	839.7266667	24.23666667	25.14333333	5.366666667	172.8207648	312.6209229	313.5339744	-2.115292126
1602	839.52	24.21	25.15	5.3	175.6946912	312.6148964	313.5270664	-0.089422886
1603	839.415	24.19	25.13	5.25	177.8394529	312.6050531	313.5155851	-0.129836299
1604	839.3	24.21	25.09	5.1	177.0946912	312.6383301	313.548638	0.048767275
1605	839.26	24.21	25.12	5.2	178.7946912	312.6425916	313.5540451	0.014051794
1606	839.13	24.25	25.075	5.05	175.2412258	312.698501	313.6106324	0.081924046
1608	838.97	24.21	25.07	5	176.1946912	312.6734954	313.5835487	-0.659620932
1609	838.855	24.21	25.065	5	176.6446912	312.6857542	313.5957903	
1610	838.75	24.17	25.06	4.8	176.3946912	312.6548858	313.5627697	-0.025449589
1611	838.645	24.23	25.06	4.9	178.4446912	312.7291775	313.6403942	0.244950829
1613	838.45	24.13	25.05	4.8	177.6946912	312.6448088	313.5506417	-0.556539208
1614	838.375	24.19	25.06	4.9	177.8446912	312.7159102	313.6253891	0.234463227
1616	838.16	24.19	25.04	4.8	175.5092752	312.7388503	313.6479103	0.151294209
1617	838.08	24.21	25.04	4.7	174.1946912	312.768424	313.6786594	0.097515357
1618	838	24.13	25.04	4.8	173.3946912	312.6928156	313.598927	-0.249375894
1619	837.9	24.09	25.04	4.9	172.6946912	312.6614129	313.565554	-0.103587738
1620	837.77	24.13	25.035	4.9	170.6446912	312.7173652	313.6236232	
1622	837.59	24.17	25.03	4.8	170.7946912	312.7786637	313.6871145	0.404301872
1623	837.54	24.17	25.03	4.8	170.7946912	312.7840039	313.6925261	
1624	837.41	24.13	25.03	4.85	169.6410829	312.755808	313.6623979	-0.371988493
1625	837.32	24.13	25.03	4.85	169.0482995	312.7654221	313.6721402	
1627	837.14	24.13	25.03	4.8	167.9446912	312.7846541	313.6916289	0.507457957
1628	837.05	24.07	25.03	4.8	168.5946912	312.7311409	313.6350736	
1630	836.85	24.03	25.025	4.8	168.1946912	312.7104243	313.6123524	
1631	836.78	24.05	25.03	4.8	168.0946912	312.7389514	313.6422131	
1632	836.61	24.01	25.03	4.8	167.7946912	312.7150313	313.6164273	
1633	836.52	24.01	25.03	4.8	167.6946912	312.7246532	313.6261769	
1634	836.46	24.05	25.02	4.7	168.3946912	312.7731646	313.6765201	0.160045936
1635	836.37	24.03	25.02	4.55	169.2924934	312.7617415	313.6641708	-0.016750724
1636	836.25	24.01	25.02	4.5	170.6946912	312.7535272	313.6550737	-0.108415262
1637	836.2	23.96	25.02	4.5	171.4946912	312.7062508	313.6052399	
1638	836.05	23.97	25.02	4.5	172.7446912	312.7328211	313.6325477	
1639	835.96	24.01	25.01	4.4	173.6946912	312.7845533	313.686151	0.170694705
1641	835.795	23.97	25.01	4.4	174.8446912	312.7601066	313.6598348	
1642	835.69	24.01	25.01	4.4	175.0946912	312.8134521	313.7154333	
1643	835.62	23.95	25.01	4.4	175.3946912	312.7577842	313.6567099	
1644	835.53	24.01	25.01	4.3	174.5946912	312.8305829	313.7327915	0.240205803
1645	835.38	23.93	25.01	4.4	173.9946912	312.7624239	313.6606397	-0.224957203
1646	835.295	23.93	25.01	4.4	172.7446912	312.7715261	313.6698623	
1647	835.2	23.93	25.01	4.3	172.1946912	312.7817004	313.6801711	0.033580007
1648	835.12	23.93	25.02	4.4	171.7946912	312.7902695	313.6892127	0.028281991
1649	835.02	23.93	25.02	4.4	172.1946912	312.8009823	313.7000672	
